time 	 T1 	 T2 	 T3 	 H1 	  p1 	 p2 	 MFC_soll 	 MFC_ist 
 19:32:13.441017	0.0	146.79	105.08	0	3336 	2012 	0 	 4 	  
 19:32:14.468251	0.0	146.7	105.03	0.0	3336 	2013 	0 	 4 	  
 19:32:14.982267	0.0	146.7	105.03	0.0	3336 	2013 	0 	 4 	  
 19:32:15.496724	0.0	146.35	104.96	0.0	3336 	2013 	0 	 4 	  
 19:32:16.008718	0.0	146.35	104.96	0.0	3336 	2013 	0 	 4 	  
 19:32:16.527834	0.0	146.17	104.94	0.0	3336 	2013 	0 	 4 	  
 19:32:17.040550	0.0	146.17	104.94	0.0	3336 	2013 	0 	 4 	  
 19:32:17.557976	0.0	145.96	104.85	0.0	3336 	2013 	0 	 4 	  
 19:32:18.075827	0.0	145.96	104.85	0.0	3336 	2013 	300 	 4 	  
 19:32:18.589412	0.0	145.71	104.85	0.02156894396279999	3336 	2013 	300 	 5 	  
 19:32:19.104029	0.0	145.63	104.85	0.022457683038299987	3363 	2013 	300 	 146 	  
 19:32:19.624310	0.0	145.63	104.78	0.02309533627860001	3395 	2014 	300 	 306 	  
 19:32:20.137662	0.0	145.4	106.54	0.023619689818800006	3398 	2014 	300 	 300 	  
 19:32:20.654391	0.0	145.4	106.54	0.02448831662879999	3398 	2014 	300 	 298 	  
 19:32:21.169215	0.0	145.25	107.27	0.025017446908799992	3399 	2014 	300 	 298 	  
 19:32:21.684573	0.0	145.25	107.27	0.025772958831300003	3398 	2014 	300 	 298 	  
 19:32:22.199973	0.0	145.07	107.51	0.026305065966299997	3398 	2014 	300 	 298 	  
 19:32:22.717367	0.0	145.07	107.51	0.027113710506300008	3397 	2015 	300 	 298 	  
 19:32:23.234273	0.0	145.04	107.53	0.02765443897570001	3397 	2015 	300 	 298 	  
 19:32:23.752586	0.0	145.04	107.53	0.02824185192370001	3398 	2015 	300 	 298 	  
 19:32:24.271318	0.0	144.93	107.48	0.028783520312500012	3398 	2016 	300 	 298 	  
 19:32:24.789170	0.0	144.93	107.48	0.02949573069929999	3397 	2016 	300 	 298 	  
 19:32:25.307941	0.0	144.82	107.42	0.030043063454499985	3398 	2016 	300 	 298 	  
 19:32:25.827161	0.0	144.82	107.42	0.03075825116950001	3397 	2016 	300 	 298 	  
 19:32:26.344139	0.0	144.81	107.39	0.03130997434150001	3397 	2017 	300 	 298 	  
 19:32:26.862539	0.0	144.81	107.39	0.0318746770489	3397 	2017 	300 	 298 	  
 19:32:27.378794	0.0	144.64	107.39	0.0324258917689	3397 	2017 	300 	 298 	  
 19:32:27.896088	0.0	144.64	107.39	0.03323596914490003	3397 	2015 	300 	 298 	  
 19:32:28.410112	0.0	144.61	107.29	0.033792163653700025	3400 	2014 	300 	 298 	  
 19:32:28.928108	0.0	144.61	107.29	0.03439199685429998	3400 	2014 	300 	 298 	  
 19:32:29.444633	0.0	144.6	107.25	0.03494895879969998	3399 	2014 	300 	 298 	  
 19:32:29.958339	0.0	144.6	107.25	0.03552077274970001	3398 	2015 	300 	 298 	  
 19:32:30.475663	0.0	144.57	107.21	0.03607454781770001	3398 	2015 	300 	 298 	  
 19:32:30.993913	0.0	144.57	107.21	0.03667830947010001	3397 	2015 	300 	 298 	  
 19:32:31.512073	0.0	144.5	107.14	0.03723807129510001	3397 	2015 	300 	 298 	  
 19:32:32.030408	0.0	144.52	107.14	0.0379052748951	3397 	2015 	300 	 298 	  
 19:32:32.548550	0.0	144.52	107.05	0.03843807181229998	3396 	2015 	300 	 298 	  
 19:32:33.066072	0.0	144.5	107.0	0.038998401372299984	3397 	2015 	300 	 298 	  
 19:32:33.582965	0.0	144.5	107.0	0.039589912742300004	3396 	2015 	300 	 298 	  
 19:32:34.099912	0.0	144.48	106.92	0.0401507416473	3395 	2015 	300 	 298 	  
 19:32:34.615855	0.0	144.48	106.92	0.04074235286810002	3395 	2015 	300 	 298 	  
 19:32:35.130845	0.0	144.5	106.9	0.04130287334330002	3395 	2016 	300 	 298 	  
 19:32:35.646426	0.0	144.5	106.9	0.0418316374933	3394 	2016 	300 	 298 	  
 19:32:36.161496	0.0	144.54	106.84	0.0423921050933	3394 	2016 	300 	 298 	  
 19:32:36.678156	0.0	144.54	106.84	0.042888454373500015	3394 	2016 	300 	 298 	  
 19:32:37.196975	0.0	144.52	106.78	0.043447583825500014	3393 	2016 	300 	 298 	  
 19:32:37.713783	0.0	144.52	106.78	0.04403977609389999	3395 	2016 	300 	 298 	  
 19:32:38.230081	0.0	144.5	106.67	0.04460093894229998	3396 	2017 	300 	 298 	  
 19:32:38.747171	0.0	144.5	106.67	0.045189971087299996	3396 	2017 	300 	 298 	  
 19:32:39.263658	0.0	144.53	106.67	0.0457510137373	3397 	2017 	300 	 298 	  
 19:32:39.784297	0.0	144.53	106.67	0.046266442642699995	3397 	2017 	300 	 298 	  
 19:32:40.300859	0.0	144.5	106.67	0.046830196051100004	3397 	2017 	300 	 298 	  
 19:32:40.817945	0.0	144.5	106.67	0.047434585161099996	3397 	2017 	300 	 298 	  
 19:32:41.335249	0.0	144.47	106.6	0.0479956234711	3398 	2017 	300 	 298 	  
 19:32:41.849740	0.0	144.47	106.6	0.048602984649500004	3398 	2018 	300 	 298 	  
 19:32:42.365068	0.0	144.53	106.63	0.049163393396300006	3397 	2018 	300 	 298 	  
 19:32:42.884383	0.0	144.53	106.63	0.0496303407782	3398 	2018 	300 	 298 	  
 19:32:43.399631	0.0	144.48	106.5	0.050192706991700003	3398 	2018 	300 	 298 	  
 19:32:43.917410	0.0	144.47	106.5	0.050828607706900016	3398 	2018 	300 	 298 	  
 19:32:44.434978	0.0	144.47	106.51	0.05140534923830001	3398 	2018 	300 	 298 	  
 19:32:44.951529	0.0	144.58	106.51	0.051969091033699996	3398 	2018 	300 	 298 	  
 19:32:45.474558	0.0	144.58	106.38	0.05236164646849997	3398 	2019 	300 	 298 	  
 19:32:45.988593	0.0	144.64	106.35	0.05292512780929998	3398 	2019 	300 	 298 	  
 19:32:46.506152	0.0	144.64	106.35	0.053387818241300025	3398 	2019 	300 	 298 	  
 19:32:47.024409	0.0	144.68	106.31	0.05394429767810002	3398 	2019 	300 	 298 	  
 19:32:47.540720	0.0	144.68	106.31	0.054440076484899985	3398 	2019 	300 	 298 	  
 19:32:48.056674	0.0	144.76	106.24	0.0549937684013	3398 	2019 	300 	 298 	  
 19:32:48.577617	0.0	144.76	106.24	0.05542418812850002	3398 	2019 	300 	 298 	  
 19:32:49.092460	0.0	144.82	106.22	0.05597993012090001	3398 	2018 	300 	 298 	  
 19:32:49.609097	0.0	144.82	106.22	0.0564370022927	3400 	2017 	300 	 298 	  
 19:32:50.125023	0.0	144.96	106.22	0.056985980768900005	3401 	2017 	300 	 298 	  
 19:32:50.643174	0.0	144.96	106.22	0.0573202120425	3401 	2017 	300 	 298 	  
 19:32:51.153205	0.0	145.01	106.25	0.0578646570345	3401 	2017 	300 	 298 	  
 19:32:51.668699	0.0	145.01	106.25	0.05832483256280002	3400 	2017 	300 	 298 	  
 19:32:52.186503	0.0	145.07	106.24	0.05886574041700002	3399 	2017 	300 	 298 	  
 19:32:52.704406	0.0	145.07	106.24	0.059316897377400014	3398 	2017 	300 	 298 	  
 19:32:53.219227	0.0	145.2	106.13	0.05985815780270002	3399 	2018 	300 	 298 	  
 19:32:53.734070	0.0	145.2	106.13	0.060196512358700036	3399 	2017 	300 	 298 	  
 19:32:54.250985	0.0	145.34	106.1	0.060729889706700034	3399 	2018 	300 	 298 	  
 19:32:54.763498	0.0	145.34	106.1	0.061050347879700005	3398 	2018 	300 	 298 	  
 19:32:55.282711	0.0	145.35	106.0	0.061576288720300014	3398 	2018 	300 	 298 	  
 19:32:55.799692	0.0	145.5	106.0	0.06209374165180002	3398 	2018 	300 	 298 	  
 19:32:56.314968	0.0	145.5	106.01	0.0623934773668	3398 	2018 	300 	 298 	  
 19:32:56.833204	0.0	145.57	106.01	0.06291752795680002	3398 	2018 	300 	 298 	  
 19:32:57.349651	0.0	145.57	105.92	0.06333495773740003	3398 	2018 	300 	 298 	  
 19:32:57.866697	0.0	145.82	105.92	0.06385662085210002	3398 	2018 	300 	 298 	  
 19:32:58.385937	0.0	145.82	105.9	0.06399484071170002	3398 	2018 	300 	 298 	  
 19:32:58.908706	0.0	145.88	105.88	0.06451023833570002	3398 	2018 	300 	 298 	  
 19:32:59.419649	0.0	145.88	105.88	0.06493694321530001	3398 	2019 	300 	 298 	  
 19:32:59.935511	0.0	146.01	105.85	0.06544195927650001	3398 	2019 	300 	 298 	  
 19:33:00.452105	0.0	146.01	105.85	0.06575214293310001	3398 	2019 	300 	 298 	  
 19:33:00.969170	0.0	146.06	105.79	0.06625902175800001	3398 	2019 	300 	 298 	  
 19:33:01.484801	0.0	146.06	105.79	0.0666875989608	3398 	2019 	300 	 298 	  
 19:33:02.001947	0.0	146.28	105.83	0.06719075169059999	3398 	2019 	300 	 298 	  
 19:33:02.519165	0.0	146.28	105.83	0.067357418709	3398 	2019 	300 	 298 	  
 19:33:03.034977	0.0	146.35	105.75	0.067855112395	3398 	2019 	300 	 298 	  
 19:33:03.547948	0.0	146.35	105.75	0.06824201812750001	3398 	2020 	300 	 298 	  
 19:33:04.067216	0.0	146.58	105.75	0.0687331642375	3398 	2020 	300 	 298 	  
 19:33:04.587476	0.0	146.58	105.75	0.06887497916609997	3398 	2020 	300 	 298 	  
 19:33:05.102749	0.0	146.68	105.66	0.06936371141009998	3398 	2020 	300 	 298 	  
 19:33:05.620731	0.0	146.68	105.66	0.06969508622009998	3398 	2020 	300 	 298 	  
 19:33:06.136819	0.0	146.88	105.67	0.07017711837209999	3398 	2020 	300 	 298 	  
 19:33:06.653198	0.0	146.88	105.67	0.0703510935913	3398 	2020 	300 	 298 	  
 19:33:07.168847	0.0	147.01	105.75	0.0708253360649	3398 	2020 	300 	 298 	  
 19:33:07.684651	0.0	147.01	105.75	0.0711001813772	3398 	2021 	300 	 298 	  
 19:33:08.203016	0.0	147.17	105.66	0.07156823627780001	3398 	2021 	300 	 298 	  
 19:33:08.715389	0.0	147.29	105.66	0.07179467798430002	3398 	2021 	300 	 298 	  
 19:33:09.232166	0.0	147.29	105.6	0.0720696465424	3398 	2021 	300 	 298 	  
 19:33:09.748446	0.0	147.49	105.6	0.07253031095990001	3398 	2021 	300 	 298 	  
 19:33:10.267590	0.0	147.49	105.59	0.07268154340729999	3398 	2021 	300 	 298 	  
 19:33:10.785743	0.0	147.57	105.59	0.07313615780809998	3398 	2021 	300 	 298 	  
 19:33:11.300007	0.0	147.57	105.63	0.07346700273340001	3398 	2021 	300 	 298 	  
 19:33:11.823528	0.0	147.8	105.56	0.07391446383980001	3398 	2021 	300 	 298 	  
 19:33:12.333918	0.0	147.8	105.56	0.07401655077379998	3398 	2019 	300 	 298 	  
 19:33:12.850102	0.0	147.92	105.52	0.07445242383379999	3400 	2019 	300 	 298 	  
 19:33:13.368144	0.0	147.92	105.52	0.07470890902420002	3400 	2019 	300 	 298 	  
 19:33:13.880356	0.0	148.09	105.59	0.07514696533940002	3400 	2019 	300 	 298 	  
 19:33:14.399353	0.0	148.09	105.59	0.0753189964838	3400 	2019 	300 	 298 	  
 19:33:14.917843	0.0	148.24	105.66	0.07575255383179999	3400 	2019 	300 	 298 	  
 19:33:15.433834	0.0	148.24	105.66	0.07595351620219998	3400 	2019 	300 	 298 	  
 19:33:15.952223	0.0	148.39	105.64	0.07637827999339998	3400 	2019 	300 	 298 	  
 19:33:16.466201	0.0	148.39	105.64	0.07657538337020002	3400 	2019 	300 	 298 	  
 19:33:16.982515	0.0	148.5	105.56	0.07699228465430002	3399 	2019 	300 	 298 	  
 19:33:17.499222	0.0	148.5	105.56	0.0772437538193	3398 	2019 	300 	 298 	  
 19:33:18.019009	0.0	148.7	105.57	0.0776597061743	3398 	2019 	300 	 298 	  
 19:33:18.533224	0.0	148.7	105.57	0.07777003267830002	3398 	2019 	300 	 298 	  
 19:33:19.048813	0.0	148.88	105.49	0.07817677674330001	3398 	2019 	300 	 298 	  
 19:33:19.565986	0.0	148.88	105.49	0.0783081112209	3398 	2019 	300 	 298 	  
 19:33:20.085419	0.0	149.14	105.52	0.0787114796577	3398 	2020 	300 	 298 	  
 19:33:20.599688	0.0	149.18	105.52	0.07871631689490001	3398 	2019 	300 	 298 	  
 19:33:21.114164	0.0	149.18	105.47	0.07904508046869999	3398 	2020 	300 	 298 	  
 19:33:21.631854	0.0	149.39	105.47	0.07943474459109999	3398 	2020 	300 	 298 	  
 19:33:22.150531	0.0	149.39	105.49	0.07950423295410003	3398 	2020 	300 	 298 	  
 19:33:22.665019	0.0	149.64	105.49	0.07988945436200001	3398 	2020 	300 	 298 	  
 19:33:23.180861	0.0	149.64	105.42	0.07988756105960003	3398 	2020 	300 	 298 	  
 19:33:23.691398	0.0	149.83	105.42	0.08026164967800004	3398 	2020 	300 	 298 	  
 19:33:24.204188	0.0	149.83	105.33	0.08034010096829998	3398 	2020 	300 	 298 	  
 19:33:24.725602	0.0	149.97	105.33	0.08070515616929998	3398 	2021 	300 	 298 	  
 19:33:25.241489	0.0	149.97	105.42	0.08086124093870001	3398 	2021 	300 	 298 	  
 19:33:25.762571	0.0	150.27	105.36	0.08122344520140001	3398 	2021 	300 	 298 	  
 19:33:26.276547	0.0	150.27	105.36	0.0811283541516	3398 	2021 	300 	 298 	  
 19:33:26.790820	0.0	150.39	105.36	0.21283342320519982	3398 	2021 	300 	 298 	  
 19:33:27.311971	0.0	150.39	105.36	0.2113793746523002	3398 	2021 	300 	 298 	  
 19:33:27.826224	0.0	150.67	105.36	0.21172995293000021	3398 	2021 	300 	 298 	  
 19:33:28.343159	0.0	150.67	105.36	0.2078658115643002	3398 	2022 	300 	 298 	  
 19:33:28.857877	0.0	151.06	105.33	0.20820406446320022	3399 	2022 	300 	 298 	  
 19:33:29.377658	0.0	151.06	105.33	0.2055690118352	3398 	2022 	300 	 298 	  
 19:33:29.890854	0.0	151.88	105.36	0.20882180133319997	3398 	2022 	300 	 298 	  
 19:33:30.407354	0.0	151.88	105.36	0.1994447301252001	3398 	2022 	300 	 298 	  
 19:33:30.923954	0.0	152.32	105.4	0.20238028308120007	3398 	2023 	300 	 298 	  
 19:33:31.441737	0.0	152.32	105.4	0.1985521433052001	3399 	2023 	300 	 298 	  
 19:33:31.958289	0.0	152.9	105.44	0.2013357447132001	3399 	2023 	300 	 298 	  
 19:33:32.474808	0.0	152.9	105.44	0.19520795330319993	3399 	2023 	300 	 298 	  
 19:33:32.990270	0.0	153.77	105.42	0.1977752863231999	3399 	2023 	300 	 298 	  
 19:33:33.508050	0.0	154.33	105.42	0.18696867194319983	3399 	2023 	300 	 298 	  
 19:33:34.026776	0.0	154.33	105.46	0.1806277653291998	3399 	2024 	300 	 298 	  
 19:33:34.540453	0.0	155.16	105.46	0.1826825642571998	3398 	2023 	300 	 298 	  
 19:33:35.058863	0.0	155.16	105.45	0.17197290193320003	3398 	2024 	300 	 298 	  
 19:33:35.574358	0.0	155.8	105.45	0.17372927501320004	3398 	2024 	300 	 298 	  
 19:33:36.088074	0.0	155.8	105.52	0.16564483031319982	3398 	2024 	300 	 298 	  
 19:33:36.605928	0.0	156.53	105.52	0.1671582188331998	3398 	2024 	300 	 298 	  
 19:33:37.122736	0.0	156.53	105.54	0.15746355518119995	3397 	2023 	300 	 298 	  
 19:33:37.640894	0.0	157.1	105.54	0.15871888181319996	3400 	2021 	300 	 298 	  
 19:33:38.156097	0.0	157.1	105.58	0.15122074255320006	3401 	2021 	300 	 298 	  
 19:33:38.677289	0.0	157.98	105.75	0.15226660464320008	3401 	2021 	300 	 298 	  
 19:33:39.190981	0.0	157.98	105.75	0.13980357013120015	3401 	2021 	300 	 298 	  
 19:33:39.709492	0.0	158.51	105.84	0.14053141531920016	3401 	2021 	300 	 298 	  
 19:33:40.225734	0.0	158.51	105.84	0.13312112714220015	3401 	2021 	300 	 298 	  
 19:33:40.740626	0.0	159.13	105.95	0.13365956754820013	3401 	2021 	300 	 298 	  
 19:33:41.257693	0.0	159.13	105.95	0.12467377622620006	3401 	2021 	300 	 298 	  
 19:33:41.775638	0.0	159.64	106.01	0.12498803057920009	3399 	2021 	300 	 298 	  
 19:33:42.289918	0.0	159.64	106.01	0.11746855271920022	3399 	2021 	300 	 298 	  
 19:33:42.806895	0.0	160.26	106.06	0.11759815127920022	3399 	2021 	300 	 298 	  
 19:33:43.322670	0.0	160.26	106.06	0.10820406146520015	3399 	2021 	300 	 298 	  
 19:33:43.838157	0.0	160.67	106.14	0.10811019041520015	3399 	2021 	300 	 298 	  
 19:33:44.354419	0.0	160.67	106.14	0.1017184270122002	3399 	2021 	300 	 298 	  
 19:33:44.869955	0.0	161.32	106.17	0.1014763001342002	3399 	2021 	300 	 298 	  
 19:33:45.385836	0.0	161.62	106.17	0.0912499448702001	3399 	2021 	300 	 298 	  
 19:33:45.898843	0.0	161.62	106.28	0.08616493581619994	3399 	2021 	300 	 298 	  
 19:33:46.411569	0.0	162.05	106.28	0.08558318587819994	3399 	2021 	300 	 298 	  
 19:33:46.930578	0.0	162.05	106.32	0.07839593597319984	3399 	2021 	300 	 298 	  
 19:33:47.446677	0.0	162.32	106.32	0.07765264615319983	3399 	2021 	300 	 298 	  
 19:33:47.957417	0.0	162.32	106.32	0.07276450137720011	3399 	2022 	300 	 298 	  
 19:33:48.474571	0.0	162.74	106.32	0.0719334372412001	3399 	2022 	300 	 298 	  
 19:33:48.990112	0.0	162.74	106.46	0.06464345195119986	3399 	2022 	300 	 298 	  
 19:33:49.506865	0.0	162.92	106.46	0.06365464431319985	3399 	2022 	300 	 298 	  
 19:33:50.024708	0.0	162.92	106.54	0.05989840118120019	3399 	2022 	300 	 298 	  
 19:33:50.542215	0.0	163.08	106.54	0.05883993008920019	3399 	2022 	300 	 298 	  
 19:33:51.060383	0.0	163.08	106.56	0.055322035465199815	3399 	2022 	300 	 298 	  
 19:33:51.578272	0.0	163.25	106.56	0.05420701478919981	3399 	2022 	300 	 298 	  
 19:33:52.091329	0.0	163.25	106.67	0.050478817314199995	3399 	2022 	300 	 298 	  
 19:33:52.609899	0.0	163.41	106.82	0.04931161263919999	3398 	2023 	300 	 298 	  
 19:33:53.126722	0.0	163.41	106.82	0.04567129163420004	3399 	2022 	300 	 298 	  
 19:33:53.639941	0.0	163.59	106.82	0.04443763513320004	3399 	2023 	300 	 298 	  
 19:33:54.157524	0.0	163.59	106.82	0.04045054187119994	3399 	2023 	300 	 298 	  
 19:33:54.673103	0.0	163.75	106.95	0.03914985579219994	3398 	2023 	300 	 298 	  
 19:33:55.191502	0.0	163.75	106.95	0.0353964609172	3398 	2024 	300 	 298 	  
 19:33:55.708664	0.0	163.77	106.97	0.0340330647922	3399 	2024 	300 	 298 	  
 19:33:56.219757	0.0	163.77	106.97	0.03236825316219984	3398 	2024 	300 	 298 	  
 19:33:56.739520	0.0	163.89	107.0	0.031019484013199837	3398 	2024 	300 	 298 	  
 19:33:57.254987	0.0	163.89	107.0	0.0278068814722002	3398 	2024 	300 	 298 	  
 19:33:57.772718	0.0	163.81	107.1	0.026403264831200205	3398 	2024 	300 	 298 	  
 19:33:58.290012	0.0	163.83	107.1	0.02621981725519995	3398 	2024 	300 	 298 	  
 19:33:58.808405	0.0	163.83	107.21	0.02453282335319979	3398 	2024 	300 	 298 	  
 19:33:59.324830	0.0	163.78	107.21	0.02314581336519978	3398 	2025 	300 	 298 	  
 19:33:59.840795	0.0	163.78	107.16	0.022526611559199952	3398 	2025 	300 	 298 	  
 19:34:00.360201	0.0	163.73	107.16	0.021161468717199955	3398 	2025 	300 	 298 	  
 19:34:00.882128	0.0	163.73	107.28	0.02055517693420013	3398 	2025 	300 	 298 	  
 19:34:01.399370	0.0	163.64	107.28	0.019195154032200137	3398 	2024 	300 	 298 	  
 19:34:01.918129	0.0	163.64	107.28	0.019227221416200195	3400 	2023 	300 	 298 	  
 19:34:02.434326	0.0	163.57	107.28	0.017902870388200202	3401 	2023 	300 	 298 	  
 19:34:02.952477	0.0	163.57	107.48	0.01766288658820011	3401 	2022 	300 	 298 	  
 19:34:03.469248	0.0	163.46	107.48	0.016370538734200114	3401 	2022 	300 	 298 	  
 19:34:03.985792	0.0	163.46	107.64	0.016768919372199882	3401 	2022 	300 	 298 	  
 19:34:04.506545	0.0	163.41	107.64	0.015515430226199882	3401 	2022 	300 	 298 	  
 19:34:05.021419	0.0	163.41	107.73	0.015024777428200062	3401 	2022 	300 	 298 	  
 19:34:05.539247	0.0	163.2	107.71	0.013793586698200066	3400 	2022 	300 	 298 	  
 19:34:06.055273	0.0	163.2	107.71	0.01578570381820018	3399 	2022 	300 	 298 	  
 19:34:06.571552	0.0	163.12	107.74	0.014629805578200185	3399 	2022 	300 	 298 	  
 19:34:07.088454	0.0	163.12	107.74	0.014699972146199945	3399 	2022 	300 	 298 	  
 19:34:07.606098	0.0	162.96	107.71	0.013573338274199943	3399 	2022 	300 	 298 	  
 19:34:08.125373	0.0	162.96	107.71	0.014900779906199889	3399 	2022 	300 	 298 	  
 19:34:08.642790	0.0	162.82	107.8	0.013824842106199886	3399 	2022 	300 	 298 	  
 19:34:09.163391	0.0	162.82	107.8	0.014903460948200118	3399 	2023 	300 	 298 	  
 19:34:09.679762	0.0	162.62	107.87	0.013875794574200122	3399 	2023 	300 	 298 	  
 19:34:10.196709	0.0	162.47	107.87	0.015928770160199952	3399 	2023 	300 	 298 	  
 19:34:10.709701	0.0	162.47	107.83	0.01728496879720004	3399 	2023 	300 	 298 	  
 19:34:11.227471	0.0	162.31	107.83	0.01639800562920004	3399 	2023 	300 	 298 	  
 19:34:11.740931	0.0	162.31	107.89	0.017960771539199984	3399 	2023 	300 	 298 	  
 19:34:12.257571	0.0	162.07	107.89	0.01713050671919998	3399 	2023 	300 	 298 	  
 19:34:12.774969	0.0	162.07	107.87	0.01998189535920012	3399 	2023 	300 	 298 	  
 19:34:13.290005	0.0	161.98	107.87	0.019232185657200127	3399 	2023 	300 	 298 	  
 19:34:13.805509	0.0	161.98	107.92	0.019868345761200182	3399 	2023 	300 	 298 	  
 19:34:14.322971	0.0	161.82	107.92	0.019153857217200185	3399 	2023 	300 	 298 	  
 19:34:14.842495	0.0	161.82	108.0	0.020894610629200134	3399 	2023 	300 	 298 	  
 19:34:15.359711	0.0	161.75	108.0	0.020232737053200136	3399 	2023 	300 	 298 	  
 19:34:15.877214	0.0	161.75	107.99	0.02064792735320003	3399 	2024 	300 	 298 	  
 19:34:16.394444	0.0	161.53	107.99	0.02001520627820003	3399 	2024 	300 	 298 	  
 19:34:16.912295	0.0	161.53	108.08	0.02276125294820001	3399 	2024 	300 	 298 	  
 19:34:17.431919	0.0	161.39	108.19	0.022206634527200012	3399 	2024 	300 	 298 	  
 19:34:17.949018	0.0	161.39	108.19	0.023801040375200238	3399 	2024 	300 	 298 	  
 19:34:18.467247	0.0	161.3	108.17	0.02329790304820024	3399 	2024 	300 	 298 	  
 19:34:18.983066	0.0	161.3	108.17	0.02417631465819986	3399 	2024 	300 	 298 	  
 19:34:19.500834	0.0	161.17	108.19	0.023705968418199858	3399 	2024 	300 	 298 	  
 19:34:20.015966	0.0	161.17	108.19	0.02523277228120022	3399 	2024 	300 	 298 	  
 19:34:20.528650	0.0	160.99	108.17	0.024810058535200224	3399 	2024 	300 	 298 	  
 19:34:21.046598	0.0	160.99	108.17	0.0271554629091999	3399 	2025 	300 	 298 	  
 19:34:21.564216	0.0	160.88	108.24	0.0267965249451999	3399 	2025 	300 	 298 	  
 19:34:22.080188	0.0	160.72	108.24	0.028127672257200108	3399 	2025 	300 	 298 	  
 19:34:22.595700	0.0	160.72	108.22	0.030267622369200053	3398 	2025 	300 	 298 	  
 19:34:23.111838	0.0	160.66	108.22	0.03000780432120005	3398 	2026 	300 	 298 	  
 19:34:23.630742	0.0	160.66	108.21	0.030669348565200084	3398 	2026 	300 	 298 	  
 19:34:24.144694	0.0	160.52	108.21	0.030429614917200087	3398 	2024 	300 	 298 	  
 19:34:24.656468	0.0	160.52	108.24	0.03234253638919988	3400 	2022 	300 	 298 	  
 19:34:25.173758	0.0	160.5	108.24	0.03215625065319987	3401 	2022 	300 	 298 	  
 19:34:25.685673	0.0	160.5	108.29	0.032275199153200027	3401 	2022 	300 	 298 	  
 19:34:26.202860	0.0	160.28	108.29	0.03209602890320003	3401 	2022 	300 	 298 	  
 19:34:26.722075	0.0	160.28	108.42	0.03529466025120001	3401 	2022 	300 	 298 	  
 19:34:27.241784	0.0	160.17	108.42	0.03519268752720001	3401 	2022 	300 	 298 	  
 19:34:27.754995	0.0	160.17	108.45	0.03678096758220022	3400 	2022 	300 	 298 	  
 19:34:28.270466	0.0	160.14	108.45	0.036719895473200224	3400 	2022 	300 	 298 	  
 19:34:28.785516	0.0	160.14	108.47	0.03711937931520024	3399 	2022 	300 	 298 	  
 19:34:29.306671	0.0	160.06	108.47	0.03706890441520025	3399 	2022 	300 	 298 	  
 19:34:29.823489	0.0	160.06	108.42	0.038247015905200014	3399 	2022 	300 	 298 	  
 19:34:30.340839	0.0	159.97	108.42	0.038225266415200014	3399 	2022 	300 	 298 	  
 19:34:30.854729	0.0	159.97	108.42	0.03958610919820007	3399 	2023 	300 	 298 	  
 19:34:31.376071	0.0	159.88	108.4	0.039596900888200066	3399 	2022 	300 	 298 	  
 19:34:31.890915	0.0	159.88	108.4	0.040990777532200116	3399 	2022 	300 	 298 	  
 19:34:32.409404	0.0	159.82	108.46	0.04103394051220012	3399 	2023 	300 	 298 	  
 19:34:32.927297	0.0	159.82	108.46	0.04199927012620016	3399 	2023 	300 	 298 	  
 19:34:33.444547	0.0	159.74	108.42	0.042064524644200164	3399 	2023 	300 	 298 	  
 19:34:33.963736	0.0	159.68	108.42	0.043358853242199916	3399 	2023 	300 	 298 	  
 19:34:34.480843	0.0	159.68	108.47	0.04437491884219995	3399 	2023 	300 	 298 	  
 19:34:34.998852	0.0	159.64	108.47	0.044490750810199944	3399 	2023 	300 	 298 	  
 19:34:35.511647	0.0	159.64	108.52	0.04522128907820026	3399 	2023 	300 	 298 	  
 19:34:36.025450	0.0	159.59	108.52	0.04535051341820026	3399 	2023 	300 	 298 	  
 19:34:36.536808	0.0	159.59	108.45	0.0462479748792	3399 	2023 	300 	 298 	  
 19:34:37.056608	0.0	159.5	108.45	0.0463947346252	3399 	2023 	300 	 298 	  
 19:34:37.573565	0.0	159.5	108.62	0.04792666462520005	3399 	2023 	300 	 298 	  
 19:34:38.089371	0.0	159.46	108.62	0.04810789672520005	3399 	2024 	300 	 298 	  
 19:34:38.605161	0.0	159.46	108.58	0.04890255047119992	3399 	2024 	300 	 298 	  
 19:34:39.122751	0.0	159.39	108.58	0.04909751909119992	3399 	2024 	300 	 298 	  
 19:34:39.639302	0.0	159.39	108.56	0.05036853002120026	3399 	2024 	300 	 298 	  
 19:34:40.155201	0.0	159.39	108.56	0.05058909729820026	3399 	2024 	300 	 298 	  
 19:34:40.671999	0.0	159.39	108.62	0.05080938617120027	3399 	2024 	300 	 298 	  
 19:34:41.187781	0.0	159.46	108.62	0.05103005891720027	3399 	2024 	300 	 298 	  
 19:34:41.705397	0.0	159.46	108.56	0.05017502451319994	3399 	2024 	300 	 298 	  
 19:34:42.222489	0.0	159.42	108.56	0.05037068336119994	3399 	2024 	300 	 298 	  
 19:34:42.736527	0.0	159.42	108.61	0.05118102424720025	3399 	2024 	300 	 298 	  
 19:34:43.249247	0.0	159.37	108.61	0.05138932214120025	3400 	2022 	300 	 298 	  
 19:34:43.767543	0.0	159.37	108.57	0.052365891183199995	3401 	2022 	300 	 298 	  
 19:34:44.280541	0.0	159.48	108.62	0.05259400019719999	3402 	2022 	300 	 298 	  
 19:34:44.794520	0.0	159.48	108.62	0.05113109474120022	3401 	2022 	300 	 298 	  
 19:34:45.311084	0.0	159.39	108.75	0.051318199113200215	3401 	2022 	300 	 298 	  
 19:34:45.826200	0.0	159.39	108.75	0.05288832700720028	3401 	2022 	300 	 298 	  
 19:34:46.346005	0.0	159.39	108.78	0.05310828153920029	3401 	2022 	300 	 298 	  
 19:34:46.864479	0.0	159.41	108.78	0.05333023827420029	3402 	2022 	300 	 298 	  
 19:34:47.383583	0.0	159.41	108.8	0.05324436803620014	3401 	2022 	300 	 298 	  
 19:34:47.895223	0.0	159.5	108.8	0.05345875798820015	3401 	2022 	300 	 298 	  
 19:34:48.414014	0.0	159.5	108.83	0.05228783198820009	3401 	2022 	300 	 298 	  
 19:34:48.931295	0.0	159.49	108.83	0.052469408838200095	3400 	2022 	300 	 298 	  
 19:34:49.444799	0.0	159.49	108.78	0.05280444979219994	3400 	2022 	300 	 298 	  
 19:34:49.958484	0.0	159.44	108.78	0.05298775572619994	3399 	2022 	300 	 298 	  
 19:34:50.477260	0.0	159.44	108.8	0.053939117110200115	3399 	2023 	300 	 298 	  
 19:34:50.990045	0.0	159.54	108.8	0.054142088830200115	3399 	2023 	300 	 298 	  
 19:34:51.506168	0.0	159.54	108.78	0.0528072056002002	3399 	2023 	300 	 298 	  
 19:34:52.021384	0.0	159.55	108.78	0.05297339720620021	3399 	2023 	300 	 298 	  
 19:34:52.539149	0.0	159.55	108.74	0.05298600556119991	3399 	2023 	300 	 298 	  
 19:34:53.054121	0.0	159.63	108.74	0.05314878622119991	3399 	2023 	300 	 298 	  
 19:34:53.570590	0.0	159.63	108.78	0.052082421674200144	3399 	2023 	300 	 298 	  
 19:34:54.092104	0.0	159.71	108.78	0.052216187922200154	3399 	2023 	300 	 298 	  
 19:34:54.608965	0.0	159.71	108.75	0.05112185267019995	3399 	2023 	300 	 298 	  
 19:34:55.124271	0.0	159.67	108.75	0.05122677545319996	3399 	2023 	300 	 298 	  
 19:34:55.637347	0.0	159.67	108.78	0.05194581113920026	3399 	2023 	300 	 298 	  
 19:34:56.156913	0.0	159.79	108.78	0.05206433169520027	3399 	2023 	300 	 298 	  
 19:34:56.672543	0.0	159.79	108.85	0.0503407078972002	3399 	2023 	300 	 298 	  
 19:34:57.192655	0.0	159.75	108.85	0.050416505507200206	3399 	2023 	300 	 298 	  
 19:34:57.711298	0.0	159.75	108.8	0.05110752510720008	3399 	2023 	300 	 298 	  
 19:34:58.226322	0.0	159.78	108.78	0.05119828763220009	3399 	2023 	300 	 298 	  
 19:34:58.744299	0.0	159.78	108.78	0.05082760132820007	3399 	2024 	300 	 298 	  
 19:34:59.256460	0.0	159.9	108.8	0.05090736978620007	3399 	2024 	300 	 298 	  
 19:34:59.772007	0.0	159.82	108.8	0.049143221056200004	3399 	2024 	300 	 298 	  
 19:35:00.285537	0.0	159.82	108.78	0.05040817997820019	3399 	2024 	300 	 298 	  
 19:35:00.804594	0.0	159.88	108.78	0.05047288475820019	3399 	2024 	300 	 298 	  
 19:35:01.319517	0.0	159.88	108.88	0.049616485546200156	3399 	2024 	300 	 298 	  
 19:35:01.834284	0.0	159.93	108.88	0.049659826522200155	3399 	2024 	300 	 298 	  
 19:35:02.350687	0.0	159.93	108.78	0.04893504853719999	3399 	2024 	300 	 298 	  
 19:35:02.866420	0.0	159.97	108.78	0.04896035189219999	3399 	2025 	300 	 298 	  
 19:35:03.382740	0.0	159.97	108.85	0.04837116126420011	3399 	2025 	300 	 298 	  
 19:35:03.896517	0.0	159.92	108.85	0.04838200398420011	3399 	2025 	300 	 298 	  
 19:35:04.414560	0.0	159.92	108.88	0.04916077549620028	3399 	2025 	300 	 298 	  
 19:35:04.930105	0.0	160.0	108.88	0.049189785904200284	3400 	2023 	300 	 298 	  
 19:35:05.451812	0.0	160.0	108.92	0.0479897859042001	3401 	2023 	300 	 298 	  
 19:35:05.964421	0.0	160.08	108.92	0.0479897859042001	3402 	2023 	300 	 298 	  
 19:35:06.479131	0.0	160.08	109.03	0.0467610798001999	3402 	2023 	300 	 298 	  
 19:35:06.996690	0.0	159.98	109.03	0.046732197576199896	3401 	2023 	300 	 298 	  
 19:35:07.512331	0.0	159.98	109.1	0.048239428786200245	3401 	2023 	300 	 298 	  
 19:35:08.027593	0.0	160.03	109.1	0.04824664776020025	3400 	2023 	300 	 298 	  
 19:35:08.545330	0.0	160.03	109.15	0.047485827258200074	3400 	2023 	300 	 298 	  
 19:35:09.061050	0.0	160.07	109.15	0.04747495478120008	3400 	2023 	300 	 298 	  
 19:35:09.575923	0.0	160.07	109.08	0.0468496352072002	3399 	2023 	300 	 298 	  
 19:35:10.094632	0.0	160.07	109.08	0.04682445572420021	3399 	2023 	300 	 298 	  
 19:35:10.612564	0.0	160.07	109.01	0.04679899008120021	3399 	2023 	300 	 298 	  
 19:35:11.134188	0.0	160.08	109.0	0.046773660315200215	3399 	2023 	300 	 298 	  
 19:35:11.649696	0.0	160.17	109.0	0.04659444937119992	3399 	2023 	300 	 298 	  
 19:35:12.168795	0.0	160.17	109.03	0.0451831039192003	3399 	2023 	300 	 298 	  
 19:35:12.681852	0.0	160.1	109.03	0.045121212495200305	3399 	2023 	300 	 298 	  
 19:35:13.197900	0.0	160.1	109.0	0.04613529717520021	3399 	2024 	300 	 298 	  
 19:35:13.713579	0.0	160.17	109.0	0.0460991752852002	3399 	2024 	300 	 298 	  
 19:35:14.231608	0.0	160.17	109.0	0.04498780960320031	3399 	2024 	300 	 298 	  
 19:35:14.744262	0.0	160.17	109.0	0.044926282438200314	3399 	2024 	300 	 298 	  
 19:35:15.264860	0.0	160.17	109.06	0.04486527661220032	3399 	2024 	300 	 298 	  
 19:35:15.784613	0.0	160.12	109.06	0.044803325450200326	3400 	2024 	300 	 298 	  
 19:35:16.297627	0.0	160.12	109.13	0.04550966619820007	3400 	2024 	300 	 298 	  
 19:35:16.812018	0.0	160.14	109.13	0.04546648675420007	3400 	2024 	300 	 298 	  
 19:35:17.331255	0.0	160.14	109.12	0.045116177082200344	3400 	2024 	300 	 298 	  
 19:35:17.851223	0.0	160.19	109.12	0.04506520061820035	3400 	2024 	300 	 298 	  
 19:35:18.367273	0.0	160.19	109.1	0.04424616869720018	3400 	2024 	300 	 298 	  
 19:35:18.882477	0.0	160.15	109.1	0.044177394929200184	3400 	2025 	300 	 298 	  
 19:35:19.399065	0.0	160.15	109.1	0.04472329819420006	3400 	2025 	300 	 298 	  
 19:35:19.916896	0.0	160.24	109.1	0.04466916659920006	3400 	2025 	300 	 298 	  
 19:35:20.429237	0.0	160.24	109.12	0.04323200332720001	3400 	2025 	300 	 298 	  
 19:35:20.948933	0.0	160.2	109.12	0.043146097703200006	3400 	2025 	300 	 298 	  
 19:35:21.460949	0.0	160.2	109.1	0.04367334026320032	3400 	2025 	300 	 298 	  
 19:35:21.984345	0.0	160.17	109.1	0.043601658023200325	3400 	2025 	300 	 298 	  
 19:35:22.497715	0.0	160.17	109.14	0.04398937389920035	3400 	2025 	300 	 298 	  
 19:35:23.014347	0.0	160.17	109.14	0.04392828286920036	3400 	2024 	300 	 298 	  
 19:35:23.527463	0.0	160.17	109.19	0.04386668466120036	3402 	2023 	300 	 298 	  
 19:35:24.046734	0.0	160.19	109.24	0.04380574285720037	3402 	2023 	300 	 298 	  
 19:35:24.559142	0.0	160.17	109.24	0.043436556124200214	3402 	2023 	300 	 298 	  
 19:35:25.077450	0.0	160.17	109.26	0.043675690242200374	3402 	2023 	300 	 298 	  
 19:35:25.591574	0.0	160.12	109.26	0.043614011590200376	3402 	2023 	300 	 298 	  
 19:35:26.107485	0.0	160.12	109.29	0.04432082517420012	3402 	2023 	300 	 298 	  
 19:35:26.628212	0.0	160.09	109.29	0.04427748865020012	3402 	2023 	300 	 298 	  
 19:35:27.141924	0.0	160.09	109.37	0.04469468284920013	3402 	2023 	300 	 298 	  
 19:35:27.658635	0.0	160.13	109.37	0.04466231899320013	3402 	2023 	300 	 298 	  
 19:35:28.177108	0.0	160.13	109.35	0.04401529829220026	3401 	2023 	300 	 298 	  
 19:35:28.689988	0.0	160.13	109.35	0.04396811724920026	3401 	2023 	300 	 298 	  
 19:35:29.210496	0.0	160.13	109.35	0.04392135134820026	3401 	2023 	300 	 298 	  
 19:35:29.726427	0.0	160.09	109.35	0.04387407894120026	3401 	2023 	300 	 298 	  
 19:35:30.247698	0.0	160.09	109.27	0.044441510335200135	3400 	2023 	300 	 298 	  
 19:35:30.764715	0.0	160.08	109.27	0.04440873521520013	3400 	2024 	300 	 298 	  
 19:35:31.282448	0.0	160.08	109.26	0.04452978226319999	3400 	2023 	300 	 298 	  
 19:35:31.797191	0.0	160.13	109.26	0.04450078921519999	3400 	2023 	300 	 298 	  
 19:35:32.316871	0.0	160.13	109.27	0.04370394760220025	3400 	2023 	300 	 298 	  
 19:35:32.837238	0.0	160.12	109.27	0.04365665672220025	3400 	2023 	300 	 298 	  
 19:35:33.351209	0.0	160.12	109.27	0.043762945894200114	3400 	2024 	300 	 298 	  
 19:35:33.865625	0.0	160.14	109.27	0.043719772330200114	3400 	2024 	300 	 298 	  
 19:35:34.381135	0.0	160.14	109.29	0.04336925705420039	3400 	2024 	300 	 298 	  
 19:35:34.898033	0.0	160.15	109.29	0.0433188395822004	3400 	2024 	300 	 298 	  
 19:35:35.414660	0.0	160.15	109.31	0.04311445630220011	3400 	2024 	300 	 298 	  
 19:35:35.929315	0.0	160.12	109.31	0.043060319457200104	3400 	2024 	300 	 298 	  
 19:35:36.448225	0.0	160.15	109.31	0.043467088437200124	3400 	2024 	300 	 298 	  
 19:35:36.966747	0.0	160.15	109.28	0.0429626028872001	3400 	2024 	300 	 298 	  
 19:35:37.478091	0.0	160.14	109.28	0.0429080497172001	3400 	2024 	300 	 298 	  
 19:35:37.995252	0.0	160.14	109.31	0.043008039141200397	3400 	2024 	300 	 298 	  
 19:35:38.515692	0.0	160.13	109.31	0.0429573573632004	3400 	2025 	300 	 298 	  
 19:35:39.032782	0.0	160.13	109.32	0.04305999732320027	3400 	2025 	300 	 298 	  
 19:35:39.549014	0.0	160.1	109.32	0.04301294213320027	3400 	2025 	300 	 298 	  
 19:35:40.066615	0.0	160.1	109.37	0.04342680589320029	3400 	2025 	300 	 298 	  
 19:35:40.585051	0.0	160.09	109.37	0.04339057382320029	3400 	2025 	300 	 298 	  
 19:35:41.099130	0.0	160.09	109.35	0.04350791235520015	3400 	2025 	300 	 298 	  
 19:35:41.613553	0.0	160.07	109.35	0.043475525378200146	3400 	2025 	300 	 298 	  
 19:35:42.132248	0.0	160.07	109.37	0.043750318651200305	3400 	2025 	300 	 298 	  
 19:35:42.648485	0.0	160.07	109.37	0.043724853841200305	3400 	2025 	300 	 298 	  
 19:35:43.165421	0.0	160.07	109.35	0.043699557101200305	3400 	2025 	300 	 298 	  
 19:35:43.681664	0.0	160.07	109.35	0.043674228315200306	3400 	2025 	300 	 298 	  
 19:35:44.199652	0.0	160.07	109.32	0.04364893015420031	3400 	2026 	300 	 298 	  
 19:35:44.716604	0.0	160.09	109.32	0.04362359980020031	3400 	2026 	300 	 298 	  
 19:35:45.238387	0.0	160.09	109.39	0.04329096617820015	3400 	2026 	300 	 298 	  
 19:35:45.752662	0.0	160.07	109.39	0.043258096747200145	3400 	2026 	300 	 298 	  
 19:35:46.267538	0.0	160.07	109.32	0.0435329460762003	3400 	2025 	300 	 298 	  
 19:35:46.783750	0.0	160.12	109.32	0.0435077171522003	3402 	2024 	300 	 298 	  
 19:35:47.301818	0.0	160.12	109.38	0.042714355344200136	3402 	2024 	300 	 298 	  
 19:35:47.817654	0.0	160.14	109.38	0.042670837632200136	3402 	2023 	300 	 298 	  
 19:35:48.332582	0.0	160.14	109.42	0.04232028570420041	3402 	2023 	300 	 298 	  
 19:35:48.847024	0.0	160.08	109.42	0.042269822760200415	3402 	2023 	300 	 298 	  
 19:35:49.361392	0.0	160.06	109.44	0.04314101400820002	3402 	2023 	300 	 298 	  
 19:35:49.877171	0.0	160.06	109.44	0.04341941055220017	3402 	2023 	300 	 298 	  
 19:35:50.392839	0.0	160.04	109.47	0.043397703230200174	3402 	2023 	300 	 298 	  
 19:35:50.910354	0.0	160.04	109.5	0.04368329426220033	3401 	2023 	300 	 298 	  
 19:35:51.425448	0.0	160.03	109.5	0.04366880384220033	3401 	2023 	300 	 298 	  
 19:35:51.942000	0.0	160.03	109.46	0.043807986868200186	3400 	2023 	300 	 298 	  
 19:35:52.457751	0.0	160.04	109.46	0.04379711739420018	3400 	2024 	300 	 298 	  
 19:35:52.975086	0.0	160.04	109.46	0.04363270554220033	3400 	2024 	300 	 298 	  
 19:35:53.487953	0.0	160.1	109.46	0.04361822016220033	3400 	2024 	300 	 298 	  
 19:35:54.007185	0.0	160.1	109.42	0.04268231947220029	3400 	2024 	300 	 298 	  
 19:35:54.527883	0.0	159.98	109.42	0.04264597323220029	3400 	2024 	300 	 298 	  
 19:35:55.047589	0.0	159.98	109.44	0.04445327696220037	3400 	2024 	300 	 298 	  
 19:35:55.563834	0.0	160.01	109.44	0.04446055265020037	3400 	2024 	300 	 298 	  
 19:35:56.080795	0.0	160.01	109.42	0.044006945816200356	3400 	2024 	300 	 298 	  
 19:35:56.598671	0.0	160.02	109.42	0.04400332011720036	3400 	2024 	300 	 298 	  
 19:35:57.113604	0.0	160.02	109.42	0.043846083797200064	3400 	2024 	300 	 298 	  
 19:35:57.628723	0.0	160.03	109.42	0.04383887473520006	3400 	2024 	300 	 298 	  
 19:35:58.147998	0.0	160.03	109.44	0.0436780572362002	3400 	2024 	300 	 298 	  
 19:35:58.662064	0.0	159.98	109.44	0.0436671524612002	3400 	2024 	300 	 298 	  
 19:35:59.177686	0.0	159.98	109.47	0.04442434938520037	3400 	2024 	300 	 298 	  
 19:35:59.694402	0.0	160.01	109.47	0.044431568093200376	3400 	2025 	300 	 298 	  
 19:36:00.213933	0.0	160.01	109.47	0.04397794407420036	3400 	2025 	300 	 298 	  
 19:36:00.727669	0.0	159.98	109.47	0.043974314364200365	3400 	2024 	300 	 298 	  
 19:36:01.247711	0.0	160.0	109.42	0.044431506668200386	3400 	2025 	300 	 298 	  
 19:36:01.762810	0.0	160.0	109.42	0.04413150666820023	3400 	2025 	300 	 298 	  
 19:36:02.279865	0.0	159.92	109.42	0.04413150666820023	3400 	2025 	300 	 298 	  
 19:36:02.796699	0.0	159.92	109.42	0.04536051954020042	3400 	2025 	300 	 298 	  
 19:36:03.311627	0.0	159.9	109.42	0.045389404452200424	3400 	2025 	300 	 298 	  
 19:36:03.827112	0.0	159.9	109.44	0.04572544941220015	3400 	2025 	300 	 298 	  
 19:36:04.342923	0.0	159.91	109.44	0.04576153336220014	3400 	2026 	300 	 298 	  
 19:36:04.857053	0.0	159.91	109.45	0.04564402945520028	3400 	2025 	300 	 298 	  
 19:36:05.378008	0.0	159.92	109.45	0.045676419645200285	3400 	2026 	300 	 298 	  
 19:36:05.891184	0.0	159.92	109.46	0.045555593125200425	3400 	2026 	300 	 298 	  
 19:36:06.409222	0.0	159.82	109.46	0.04558438972520043	3400 	2026 	300 	 298 	  
 19:36:06.929282	0.0	159.82	109.54	0.04714953033920035	3400 	2026 	300 	 298 	  
 19:36:07.443898	0.0	159.86	109.54	0.04721505789920035	3399 	2026 	300 	 298 	  
 19:36:07.964202	0.0	159.86	109.5	0.046665589835200035	3399 	2026 	300 	 298 	  
 19:36:08.479195	0.0	159.88	109.5	0.04671648005920003	3400 	2025 	300 	 298 	  
 19:36:08.998795	0.0	159.88	109.45	0.0464598264952003	3402 	2023 	300 	 298 	  
 19:36:09.515909	0.0	159.9	109.45	0.0465033858712003	3402 	2023 	300 	 298 	  
 19:36:10.034494	0.0	159.9	109.63	0.04623965357120015	3402 	2024 	300 	 298 	  
 19:36:10.552545	0.0	159.86	109.63	0.04627588480120014	3402 	2023 	300 	 298 	  
 19:36:11.068937	0.0	159.86	109.6	0.04692675464120002	3401 	2024 	300 	 298 	  
 19:36:11.586353	0.0	159.95	109.6	0.04697726021520001	3400 	2023 	300 	 298 	  
 19:36:12.103258	0.0	159.95	109.63	0.04564536977520039	3401 	2023 	300 	 298 	  
 19:36:12.618993	0.0	159.84	109.63	0.04566346145020039	3401 	2023 	300 	 298 	  
 19:36:13.136346	0.0	159.91	109.54	0.04737122377020018	3400 	2024 	300 	 298 	  
 19:36:13.654166	0.0	159.91	109.54	0.04635381700920028	3400 	2024 	300 	 298 	  
 19:36:14.173072	0.0	159.92	109.58	0.04638643966920028	3400 	2024 	300 	 298 	  
 19:36:14.688465	0.0	159.92	109.58	0.04626549840520042	3400 	2024 	300 	 298 	  
 19:36:15.205906	0.0	159.93	109.53	0.046294360413200425	3400 	2024 	300 	 298 	  
 19:36:15.720270	0.0	159.93	109.53	0.04616971502220013	3400 	2024 	300 	 298 	  
 19:36:16.236349	0.0	159.91	109.58	0.04619491885820013	3400 	2024 	300 	 298 	  
 19:36:16.755367	0.0	159.91	109.57	0.046527431835200285	3400 	2024 	300 	 298 	  
 19:36:17.270491	0.0	159.86	109.57	0.04656012996920029	3400 	2024 	300 	 298 	  
 19:36:17.789936	0.0	159.86	109.53	0.04736071355120003	3400 	2024 	300 	 298 	  
 19:36:18.307080	0.0	159.88	109.53	0.04741161612320002	3400 	2024 	300 	 298 	  
 19:36:18.824281	0.0	159.88	109.57	0.047154971883200295	3400 	2024 	300 	 298 	  
 19:36:19.343754	0.0	159.84	109.57	0.047198416767200296	3400 	2024 	300 	 298 	  
 19:36:19.859777	0.0	159.84	109.57	0.04785659774320018	3400 	2025 	300 	 298 	  
 19:36:20.380414	0.0	159.82	109.57	0.04791450219120018	3400 	2025 	300 	 298 	  
 19:36:20.892216	0.0	159.82	109.56	0.04827997884720033	3400 	2025 	300 	 298 	  
 19:36:21.410831	0.0	159.82	109.56	0.048344596687200335	3400 	2025 	300 	 298 	  
 19:36:21.930363	0.0	159.82	109.58	0.048409811389200336	3400 	2025 	300 	 298 	  
 19:36:22.444717	0.0	159.78	109.58	0.04847527242120034	3400 	2025 	300 	 298 	  
 19:36:22.958547	0.0	159.78	109.57	0.04915464340520022	3400 	2025 	300 	 298 	  
 19:36:23.475709	0.0	159.75	109.57	0.049233612757200215	3400 	2025 	300 	 298 	  
 19:36:23.991193	0.0	159.75	109.56	0.04977411610720023	3400 	2025 	300 	 298 	  
 19:36:24.508613	0.0	159.67	109.56	0.04986432580720024	3400 	2025 	300 	 298 	  
 19:36:25.025635	0.0	159.67	109.54	0.05118384982720043	3400 	2026 	300 	 298 	  
 19:36:25.543942	0.0	159.68	109.54	0.051303519608200426	3400 	2026 	300 	 298 	  
 19:36:26.061163	0.0	159.71	109.7	0.05126938988020013	3400 	2026 	300 	 298 	  
 19:36:26.580560	0.0	159.71	109.7	0.050924385743200115	3401 	2025 	300 	 298 	  
 19:36:27.094772	0.0	159.71	109.63	0.051030034657200116	3402 	2024 	300 	 298 	  
 19:36:27.611163	0.0	159.71	109.63	0.051134208370200114	3403 	2024 	300 	 298 	  
 19:36:28.128750	0.0	159.79	109.61	0.05123903574320011	3402 	2024 	300 	 298 	  
 19:36:28.646247	0.0	159.79	109.61	0.05011526817920035	3402 	2023 	300 	 298 	  
 19:36:29.164819	0.0	159.75	109.66	0.05019119309120035	3402 	2023 	300 	 298 	  
 19:36:29.684837	0.0	159.75	109.74	0.050882117666200224	3402 	2023 	300 	 298 	  
 19:36:30.202469	0.0	159.75	109.74	0.050972946341200226	3402 	2023 	300 	 298 	  
 19:36:30.722541	0.0	159.75	109.76	0.051063704141200233	3401 	2023 	300 	 298 	  
 19:36:31.239777	0.0	159.79	109.76	0.051154544541200234	3401 	2023 	300 	 298 	  
 19:36:31.751853	0.0	159.79	109.7	0.05063057823320035	3401 	2024 	300 	 298 	  
 19:36:32.271612	0.0	159.8	109.7	0.050705853405200355	3401 	2024 	300 	 298 	  
 19:36:32.786741	0.0	159.8	109.67	0.05062861966520006	3400 	2024 	300 	 298 	  
 19:36:33.304952	0.0	159.8	109.67	0.050700737725200055	3400 	2024 	300 	 298 	  
 19:36:33.821862	0.0	159.8	109.61	0.05077342642520005	3400 	2024 	300 	 298 	  
 19:36:34.339016	0.0	159.84	109.61	0.050845801525200046	3400 	2024 	300 	 298 	  
 19:36:34.854513	0.0	159.84	109.58	0.05030360528520016	3400 	2024 	300 	 298 	  
 19:36:35.370502	0.0	159.89	109.58	0.05036145563720016	3400 	2024 	300 	 298 	  
 19:36:35.887097	0.0	159.89	109.61	0.049651188099200425	3400 	2024 	300 	 298 	  
 19:36:36.401476	0.0	159.88	109.61	0.04969088575720043	3400 	2024 	300 	 298 	  
 19:36:36.917980	0.0	159.88	109.65	0.04988418170920029	3400 	2024 	300 	 298 	  
 19:36:37.436965	0.0	159.95	109.65	0.04992756770920029	3400 	2024 	300 	 298 	  
 19:36:37.953499	0.0	159.89	109.7	0.048895727494200396	3400 	2024 	300 	 298 	  
 19:36:38.469671	0.0	159.89	109.7	0.04983550600220044	3400 	2024 	300 	 298 	  
 19:36:38.982078	0.0	159.93	109.64	0.04987517570920045	3400 	2024 	300 	 298 	  
 19:36:39.498939	0.0	159.93	109.64	0.04930028365220014	3400 	2025 	300 	 298 	  
 19:36:40.016331	0.0	159.93	109.71	0.04932560984120014	3400 	2025 	300 	 298 	  
 19:36:40.532655	0.0	159.93	109.71	0.049350962049200135	3400 	2025 	300 	 298 	  
 19:36:41.047733	0.0	159.98	109.75	0.04937631092520013	3401 	2025 	300 	 298 	  
 19:36:41.563814	0.0	159.98	109.75	0.04863350801720039	3400 	2025 	300 	 298 	  
 19:36:42.080707	0.0	160.01	109.63	0.0486407331512004	3400 	2025 	300 	 298 	  
 19:36:42.596567	0.0	160.01	109.71	0.04818711490020038	3400 	2025 	300 	 298 	  
 19:36:43.112787	0.0	159.96	109.71	0.04818350388020039	3400 	2025 	300 	 298 	  
 19:36:43.630918	0.0	159.96	109.7	0.04894795804020013	3400 	2025 	300 	 298 	  
 19:36:44.149488	0.0	160.03	109.7	0.04896246570820013	3400 	2025 	300 	 298 	  
 19:36:44.668380	0.0	160.03	109.68	0.04790155482220023	3400 	2026 	300 	 298 	  
 19:36:45.182099	0.0	160.12	109.68	0.04789067900620023	3400 	2026 	300 	 298 	  
 19:36:45.699811	0.0	160.12	109.66	0.046497438578200184	3400 	2026 	300 	 298 	  
 19:36:46.215059	0.0	160.07	109.66	0.046454038802200184	3400 	2026 	300 	 298 	  
 19:36:46.731195	0.0	160.07	109.67	0.04717874279720036	3400 	2026 	300 	 298 	  
 19:36:47.249237	0.0	160.1	109.67	0.04715350098620036	3400 	2026 	300 	 298 	  
 19:36:47.765850	0.0	160.1	109.66	0.04666716510620035	3400 	2026 	300 	 298 	  
 19:36:48.291770	0.0	160.08	109.66	0.04663100653620035	3400 	2026 	300 	 298 	  
 19:36:48.816380	0.0	160.08	109.71	0.04690155423220007	3401 	2024 	300 	 298 	  
 19:36:49.332804	0.0	160.14	109.71	0.04687217456020006	3403 	2024 	300 	 298 	  
 19:36:49.854986	0.0	160.17	109.72	0.045921665066200455	3403 	2024 	300 	 298 	  
 19:36:50.377185	0.0	160.17	109.72	0.045409525408200445	3403 	2023 	300 	 298 	  
 19:36:50.889217	0.0	160.17	109.82	0.04534738372720045	3403 	2023 	300 	 298 	  
 19:36:51.408432	0.0	160.17	109.82	0.04528645191920046	3403 	2023 	300 	 298 	  
 19:36:51.920580	0.0	160.12	109.84	0.04522466533420046	3403 	2023 	300 	 298 	  
 19:36:52.439130	0.0	160.12	109.84	0.045931644902200204	3403 	2023 	300 	 298 	  
 19:36:52.955699	0.0	160.19	109.86	0.0458880867022002	3402 	2023 	300 	 298 	  
 19:36:53.472397	0.0	160.19	109.86	0.0447693830252003	3401 	2023 	300 	 298 	  
 19:36:53.987764	0.0	160.12	109.86	0.044700524669200305	3401 	2024 	300 	 298 	  
 19:36:54.506527	0.0	160.12	109.77	0.0457073206972002	3401 	2023 	300 	 298 	  
 19:36:55.024611	0.0	160.17	109.77	0.0456637446052002	3401 	2023 	300 	 298 	  
 19:36:55.542435	0.0	160.17	109.84	0.04485197384720046	3401 	2024 	300 	 298 	  
 19:36:56.056886	0.0	160.1	109.84	0.04479047155320046	3401 	2024 	300 	 298 	  
 19:36:56.576481	0.0	160.1	109.77	0.04580439019320036	3401 	2024 	300 	 298 	  
 19:36:57.091632	0.0	160.1	109.77	0.04576808833320037	3401 	2024 	300 	 298 	  
 19:36:57.608775	0.0	160.1	109.77	0.04573202776320037	3401 	2024 	300 	 298 	  
 19:36:58.125364	0.0	160.09	109.77	0.04569582775320037	3402 	2024 	300 	 298 	  
 19:36:58.639704	0.0	160.09	109.76	0.04581328264620023	3401 	2024 	300 	 298 	  
 19:36:59.160071	0.0	160.12	109.76	0.04578081578520023	3401 	2024 	300 	 298 	  
 19:36:59.682583	0.0	160.12	109.81	0.04528718954520021	3401 	2024 	300 	 298 	  
 19:37:00.198197	0.0	160.14	109.81	0.045243215377200205	3401 	2024 	300 	 298 	  
 19:37:00.711349	0.0	160.14	109.84	0.044892782225200475	3401 	2024 	300 	 298 	  
 19:37:01.231867	0.0	160.13	109.84	0.04484239944520048	3401 	2025 	300 	 298 	  
 19:37:01.752435	0.0	160.1	109.86	0.04494502857620035	3401 	2025 	300 	 298 	  
 19:37:02.269143	0.0	160.1	109.86	0.04535858846620036	3401 	2025 	300 	 298 	  
 19:37:02.783762	0.0	160.12	109.82	0.04532241799620036	3401 	2025 	300 	 298 	  
 19:37:03.302684	0.0	160.12	109.82	0.04497919000020021	3401 	2025 	300 	 298 	  
 19:37:03.820420	0.0	160.13	109.86	0.04493568598020021	3401 	2025 	300 	 298 	  
